time (s)	det(V)
64176.689119	-0.383395	
64176.691120	-0.421363	
64176.693118	-0.455211	
64176.695118	-0.481760	
64176.697119	-0.512749	
64176.699119	-0.550187	
64176.701119	-0.586323	
64176.705118	-0.625578	
64176.709118	-0.701167	
64176.711118	-0.789020	
64176.713118	-0.833139	
64176.715119	-0.887686	
64176.717118	-0.932675	
64176.719119	-0.984828	
64176.723117	-1.050363	
64176.727117	-1.172635	
64176.729118	-1.292411	
64176.731119	-1.366764	
64176.733118	-1.441580	
64176.735119	-1.517388	
64176.737118	-1.601905	
64176.739119	-1.639268	
64176.743116	-1.639379	
64176.747117	-1.639605	
64176.749119	-1.639800	
64176.751118	-1.639948	
64176.753119	-1.640094	
64176.755118	-1.640207	
64176.757119	-1.640322	
64176.759118	-1.640481	
64176.763117	-1.640562	
64176.767116	-1.640778	
64176.769119	-1.640783	
64176.771119	-1.640781	
64176.773120	-1.640852	
64176.775118	-1.640769	
64176.777118	-1.640826	
64176.779118	-1.640807	
64176.781118	-1.640822	
64176.785118	-1.640819	
64176.787118	-1.640812	
64176.789118	-1.640890	
64176.791120	-1.640808	
64176.793118	-1.640793	
64176.795119	-1.640781	
64176.797119	-1.640807	
64176.799119	-1.640847	
64176.803117	-1.640844	
64176.805118	-1.640786	
64176.807118	-1.640815	
64176.811118	-1.640817	
64176.813120	-1.640784	
64176.815118	-1.640806	
64176.817119	-1.640774	
64176.819119	-1.640822	
64176.823116	-1.640810	
64176.825119	-1.640761	
64176.827118	-1.640813	
64176.831118	-1.640862	
64176.833119	-1.640778	
64176.835119	-1.640790	
64176.837118	-1.640801	
64176.839118	-1.640782	
64176.841118	-1.640823	
64176.843118	-1.640780	
64176.845118	-1.640846	
64176.849125	-1.640835	
64176.851126	-1.640795	
64176.853127	-1.640814	
64176.855126	-1.640812	
64176.857127	-1.640793	
64176.859128	-1.640808	
64176.861127	-1.640801	
64176.865125	-1.640767	
64176.867127	-1.640822	
64176.869127	-1.640849	
64176.873126	-1.640863	
64176.875126	-1.640769	
64176.877126	-1.640790	
64176.879127	-1.640799	
64176.881126	-1.640770	
64176.885125	-1.640764	
64176.887127	-1.640791	
64176.889126	-1.640797	
64176.893127	-1.640723	
64176.895127	-1.640444	
64176.897127	-1.640334	
64176.899126	-1.640225	
64176.901127	-1.639943	
64176.905126	-1.639787	
64176.907127	-1.639483	
64176.909126	-1.639396	
64176.913126	-1.586529	
64176.915126	-1.302916	
64176.917126	-1.154615	
64176.919128	-1.011336	
64176.921127	-0.879727	
64176.925125	-0.741273	
64176.927127	-0.473759	
64176.929126	-0.336906	
64176.933126	-0.204081	
64176.935127	0.090204	
64176.937127	0.220118	
64176.939127	0.356427	
64176.941132	0.490722	
64176.943133	0.619991	
64176.945133	0.750433	
64176.947134	0.880691	
64176.951133	1.012845	
64176.953134	1.279698	
64176.955134	1.410847	
64176.957134	1.560118	
64176.959134	1.620378	
64176.961134	1.620750	
64176.963134	1.620814	
64176.967132	1.620792	
64176.969133	1.620793	
64176.971134	1.620796	
64176.975133	1.620828	
64176.977134	1.620780	
64176.979133	1.620806	
64176.981133	1.620750	
64176.983137	1.620808	
64176.987134	1.620781	
64176.989135	1.620755	
64176.991136	1.620769	
64176.993136	1.620782	
64176.995140	1.620870	
64176.997137	1.620791	
64176.999136	1.620822	
64177.001139	1.620819	
64177.003137	1.620786	
64177.007135	1.620780	
64177.009137	1.620826	
64177.011138	1.620797	
64177.015136	1.620814	
64177.017137	1.620813	
64177.019138	1.620880	
64177.021136	1.620831	
64177.023138	1.620875	
64177.025138	1.620796	
64177.027138	1.620808	
64177.029139	1.620805	
64177.033135	1.620754	
64177.035138	1.620820	
64177.037138	1.620805	
64177.039136	1.620839	
64177.041138	1.620828	
64177.043138	1.620862	
64177.045138	1.620800	
64177.049136	1.620827	
64177.051138	1.620836	
64177.053138	1.620723	
64177.055138	1.620808	
64177.057138	1.620839	
64177.059143	1.620818	
64177.061144	1.620768	
64177.063144	1.620802	
64177.065143	1.620813	
64177.069141	1.620783	
64177.071144	1.620789	
64177.073143	1.620799	
64177.077142	1.620833	
64177.093077	1.621276	
64177.095079	1.621248	
64177.099079	1.621233	
64177.101078	1.621355	
64177.103078	1.621374	
64177.105078	1.621359	
64177.107079	1.621316	
64177.111077	1.621342	
64177.113078	1.621307	
64177.115078	1.621310	
64177.119078	1.621272	
64177.121079	1.621324	
64177.123078	1.621315	
64177.125080	1.621299	
64177.127079	1.621349	
64177.131077	1.621328	
64177.133079	1.621025	
64177.135080	1.615262	
64177.139078	1.553792	
64177.141078	1.418791	
64177.143079	1.347257	
64177.145079	1.293623	
64177.147079	1.239621	
64177.149079	1.186926	
64177.153076	1.134973	
64177.157076	1.030279	
64177.159079	0.935818	
64177.161079	0.898871	
64177.163079	0.860220	
64177.165085	0.813229	
64177.167085	0.784125	
64177.169088	0.745470	
64177.171087	0.702496	
64177.173087	0.671872	
64177.177097	0.635883	
64177.179098	0.580532	
64177.181100	0.551929	
64177.183099	0.530412	
64177.185098	0.508650	
64177.187099	0.479651	
64177.189098	0.460368	
64177.193097	0.438057	
64177.195099	0.395733	
64177.197098	0.377032	
64177.201098	0.354276	
64177.203099	0.329924	
64177.205099	0.313255	
64177.207099	0.299328	
64177.209099	0.277281	
64177.213098	0.264566	
64177.215099	0.230160	
64177.217098	0.223014	
64177.221098	0.211657	
64177.223099	0.198773	
64177.225098	0.182463	
64177.227098	0.167848	
64177.229098	0.165397	
64177.233097	0.153149	
64177.235097	0.135195	
64177.237100	0.123176	
64177.241098	0.120265	
64177.243099	0.105198	
64177.245099	0.103401	
64177.247099	0.096162	
64177.249098	0.089070	
64177.253099	0.089226	
64177.255101	0.067949	
64177.257100	0.067208	
64177.261100	0.052304	
64177.263101	0.056963	
64177.265101	0.047422	
64177.267100	0.047052	
64177.269101	0.044884	
64177.273100	0.037116	
64177.275101	0.023772	
64177.277100	0.019142	
64177.281100	0.022252	
64177.283101	0.024574	
64177.285101	0.023957	
64177.287101	0.017026	
64177.289100	0.020440	
64177.293099	0.017030	
64177.295100	0.005110	
64177.297101	0.003854	
64177.301100	-0.001441	
64177.303102	0.005948	
64177.305100	0.006992	
64177.307100	0.005409	
64177.309101	-0.000685	
64177.313098	0.000836	
64177.315101	-0.012979	
64177.317100	-0.005123	
64177.321100	-0.008088	
64177.323100	0.001279	
64177.325100	-0.006021	
64177.327101	-0.010296	
64177.329102	-0.003762	
64177.331101	-0.011593	
64177.333100	-0.014713	
64177.337099	-0.010989	
64177.339100	-0.011038	
64177.341100	-0.012331	
64177.343104	-0.015012	
64177.345106	-0.007292	
64177.347106	-0.009085	
64177.349105	-0.012072	
64177.351106	-0.004318	
64177.355104	-0.009086	
64177.357106	-0.010633	
64177.359105	-0.020147	
64177.363105	-0.015517	
64177.365107	-0.012177	
64177.367105	-0.005502	
64177.369105	-0.007438	
64177.371106	-0.007896	
64177.373105	-0.005234	
64177.375105	-0.017497	
64177.379108	-0.020403	
64177.383110	-0.020166	
64177.385110	-0.007228	
64177.387114	-0.010725	
64177.389109	-0.008294	
64177.391110	-0.008530	
64177.393111	-0.014131	
64177.395110	-0.014984	
64177.399110	-0.017963	
64177.403109	-0.011383	
64177.405110	-0.006567	
64177.407110	-0.000926	
64177.409109	-0.010726	
64177.411110	-0.007016	
64177.413110	-0.004446	
64177.415110	-0.015221	
64177.419112	-0.008630	
64177.423111	-0.012928	
64177.425112	-0.006987	
64177.427111	-0.006507	
64177.429111	-0.003877	
64177.431112	-0.007013	
64177.433112	-0.004322	
64177.435111	-0.006504	
64177.439111	-0.012094	
64177.441112	-0.010032	
64177.443113	-0.014855	
64177.445113	-0.003132	
64177.447112	-0.003971	
64177.449112	-0.005638	
64177.451113	0.002508	
64177.453112	-0.000531	
64177.457110	-0.001160	
64177.459111	-0.011217	
64177.461112	-0.006685	
64177.465111	-0.006296	
64177.467112	0.005492	
64177.469112	0.004586	
64177.471111	0.001025	
64177.473113	0.007606	
64177.475112	0.001199	
64177.477112	-0.005404	
64177.481111	-0.001354	
64177.485111	-0.001781	
64177.487112	0.004349	
64177.489112	0.009268	
64177.491112	0.005734	
64177.493111	0.000197	
64177.495111	0.004792	
64177.497111	-0.002838	
64177.501111	-0.005486	
64177.503112	-0.002705	
64177.505112	-0.001544	
64177.507112	0.007795	
64177.509112	-0.000943	
64177.511111	0.003880	
64177.513112	0.003007	
64177.515111	-0.000774	
64177.519109	0.005746	
64177.521111	-0.004623	
64177.523110	0.000710	
64177.527111	-0.005527	
64177.529112	0.005641	
64177.531113	0.001298	
64177.533111	0.001838	
64177.535111	0.005670	
64177.537112	0.001662	
64177.539113	-0.001221	
64177.543110	-0.004408	
64177.547111	-0.005564	
64177.549113	-0.005180	
64177.551114	0.003696	
64177.553111	-0.004666	
64177.555112	-0.002514	
64177.557112	-0.000727	
64177.559112	-0.017191	
64177.563112	-0.015384	
64177.567112	-0.011011	
64177.569111	-0.010619	
64177.571112	-0.013249	
64177.573112	-0.009896	
64177.575112	-0.017990	
64177.577113	-0.019769	
64177.579113	-0.023130	
64177.581114	-0.030176	
64177.585111	-0.028799	
64177.587111	-0.033427	
64177.589112	-0.024443	
64177.591112	-0.028052	
64177.593112	-0.037175	
64177.595114	-0.034512	
64177.597111	-0.038235	
64177.601109	-0.043452	
64177.603111	-0.052413	
64177.605113	-0.054572	
64177.609111	-0.055418	
64177.611112	-0.061342	
64177.613111	-0.063021	
64177.615112	-0.072803	
64177.617114	-0.069412	
64177.619111	-0.076807	
64177.621112	-0.089878	
64177.623111	-0.090630	
64177.627117	-0.102098	
64177.629117	-0.109186	
64177.631118	-0.115071	
64177.633118	-0.117703	
64177.635119	-0.122422	
64177.637117	-0.132914	
64177.639118	-0.136390	
64177.643119	-0.148326	
64177.647118	-0.170463	
64177.649120	-0.189217	
64177.651119	-0.188540	
64177.653119	-0.203669	
64177.655120	-0.214855	
64177.657119	-0.223505	
64177.659120	-0.243415	
64177.661119	-0.258695	
64177.665125	-0.271929	
64177.669124	-0.298544	
64177.671124	-0.328228	
64177.673124	-0.339389	
64177.675124	-0.367082	
64177.677123	-0.385247	
64177.679125	-0.398746	
64177.681123	-0.426193	
64177.685133	-0.442625	
64177.689133	-0.489726	
64177.691133	-0.531434	
64177.693135	-0.561350	
64177.695134	-0.586302	
64177.697134	-0.613737	
64177.699133	-0.645301	
64177.701134	-0.675591	
64177.705141	-0.714011	
64177.709141	-0.779074	
64177.711142	-0.854542	
64177.713142	-0.894017	
64177.715141	-0.939553	
64177.717141	-0.978958	
64177.719141	-1.025889	
64177.721141	-1.080861	
64177.725142	-1.126981	
64177.727141	-1.239801	
64177.729141	-1.290620	
64177.731143	-1.349084	
64177.733143	-1.408867	
64177.735141	-1.472030	
64177.737141	-1.545782	
64177.739142	-1.611328	
64177.743139	-1.638514	
64177.747141	-1.638775	
64177.749142	-1.638884	
64177.751141	-1.639020	
64177.753142	-1.639210	
64177.755142	-1.639328	
64177.757142	-1.639400	
64177.759142	-1.639559	
64177.761141	-1.639619	
64177.765142	-1.639676	
64177.767143	-1.639891	
64177.769141	-1.640055	
64177.771141	-1.640059	
64177.773143	-1.640106	
64177.775142	-1.640077	
64177.777141	-1.640116	
64177.779142	-1.640119	
64177.783140	-1.640061	
64177.785142	-1.640152	
64177.787141	-1.640124	
64177.791141	-1.640144	
64177.793141	-1.640111	
64177.795142	-1.640100	
64177.797143	-1.640083	
64177.799143	-1.640076	
64177.803140	-1.640090	
64177.805141	-1.640127	
64177.807141	-1.640132	
64177.811142	-1.640168	
64177.813142	-1.640149	
64177.815142	-1.640081	
64177.817141	-1.640107	
64177.819143	-1.640067	
64177.823140	-1.640115	
64177.825141	-1.640135	
64177.827142	-1.640164	
64177.831141	-1.640155	
64177.833142	-1.640121	
64177.835141	-1.640100	
64177.837143	-1.640084	
64177.839144	-1.640079	
64177.841142	-1.640059	
64177.843141	-1.640098	
64177.845146	-1.640138	
64177.849143	-1.640131	
64177.851143	-1.640177	
64177.853144	-1.640119	
64177.855145	-1.640064	
64177.857144	-1.640108	
64177.859144	-1.640110	
64177.861143	-1.640054	
64177.865142	-1.640035	
64177.867144	-1.640110	
64177.869144	-1.640153	
64177.873143	-1.640120	
64177.875143	-1.640114	
64177.877145	-1.640111	
64177.879145	-1.640063	
64177.881144	-1.640085	
64177.885141	-1.640077	
64177.887144	-1.640090	
64177.889143	-1.640103	
64177.893143	-1.640094	
64177.895145	-1.640100	
64177.897146	-1.640094	
64177.899143	-1.640060	
64177.901144	-1.639990	
64177.905142	-1.639849	
64177.907145	-1.639618	
64177.909144	-1.639565	
64177.913143	-1.639393	
64177.915143	-1.638957	
64177.917144	-1.638738	
64177.919143	-1.638659	
64177.921144	-1.631086	
64177.925142	-1.521719	
64177.927143	-1.264990	
64177.929143	-1.138510	
64177.933143	-1.018498	
64177.935144	-0.742814	
64177.937144	-0.622442	
64177.939144	-0.492500	
64177.941144	-0.369992	
64177.945142	-0.241401	
64177.947144	0.010868	
64177.949143	0.140807	
64177.953144	0.282984	
64177.955146	0.538092	
64177.957144	0.670541	
64177.959146	0.794739	
64177.961145	0.928255	
64177.965143	1.054666	
64177.967144	1.304877	
64177.969143	1.434812	
64177.973144	1.570023	
64177.975144	1.621247	
64177.977144	1.621313	
64177.979145	1.621319	
64177.981145	1.621285	
64177.985143	1.621289	
64177.987144	1.621283	
64177.989144	1.621258	
64177.993144	1.621215	
64177.995145	1.621252	
64177.997146	1.621312	
64177.999145	1.621337	
64178.001146	1.621328	
64178.003145	1.621336	
64178.007143	1.621326	
64178.009145	1.621240	
64178.011145	1.621292	
64178.015144	1.621281	
64178.017145	1.621352	
64178.019145	1.621334	
64178.021144	1.621343	
64178.023145	1.621304	
64178.027142	1.621357	
64178.029144	1.621239	
64178.031145	1.621276	
64178.033149	1.621262	
64178.035145	1.621272	
64178.037145	1.621318	
64178.039144	1.621317	
64178.041145	1.621323	
64178.043144	1.621368	
64178.047143	1.621302	
64178.049145	1.621289	
64178.051145	1.621283	
64178.055145	1.621245	
64178.057145	1.621302	
64178.059145	1.621329	
64178.061144	1.621324	
64178.063147	1.621370	
64178.065144	1.621401	
64178.067145	1.621314	
64178.069145	1.621312	
64178.073148	1.621309	
64178.075148	1.621268	
64178.077150	1.621289	
64178.079149	1.621317	
64178.081149	1.621293	
64178.083149	1.621325	
64178.085149	1.621385	
64178.089147	1.621378	
64178.101613	1.621086	
64178.103611	1.621037	
64178.105612	1.621041	
64178.107613	1.621019	
64178.109612	1.621061	
64178.113610	1.621020	
64178.115613	1.621152	
64178.117612	1.621104	
64178.121611	1.621148	
64178.123612	1.621093	
64178.125615	1.621073	
64178.127613	1.621065	
64178.129613	1.621054	
64178.133611	1.621059	
64178.135613	1.621106	
64178.137611	1.621143	
64178.141612	1.621070	
64178.143612	1.621026	
64178.145614	1.620932	
64178.147612	1.620297	
64178.149613	1.587195	
64178.151612	1.506944	
64178.155610	1.411723	
64178.159610	1.272949	
64178.161615	1.150083	
64178.163617	1.089136	
64178.165616	1.030490	
64178.167615	0.980672	
64178.169616	0.920068	
64178.171615	0.870315	
64178.173616	0.814824	
64178.177615	0.760686	
64178.181616	0.676068	
64178.183615	0.605938	
64178.185615	0.567437	
64178.187616	0.529374	
64178.189616	0.504015	
64178.191617	0.466114	
64178.193617	0.430561	
64178.197620	0.406907	
64178.201621	0.359789	
64178.203623	0.318350	
64178.205623	0.303341	
64178.207622	0.279263	
64178.209621	0.257191	
64178.211622	0.242846	
64178.213622	0.218072	
64178.217624	0.199531	
64178.221623	0.172086	
64178.223625	0.158452	
64178.225624	0.136340	
64178.227625	0.126116	
64178.229625	0.115775	
64178.231625	0.101137	
64178.235622	0.091228	
64178.239622	0.068357	
64178.241624	0.051140	
64178.243625	0.046190	
64178.245627	0.042207	
64178.247632	0.029711	
64178.249628	0.028245	
64178.251632	0.025163	
64178.253632	0.009529	
64178.257631	0.007296	
64178.261630	-0.010139	
64178.263631	-0.008378	
64178.265634	-0.014509	
64178.267631	-0.015064	
64178.269633	-0.020565	
64178.271633	-0.020930	
64178.273632	-0.026502	
64178.277639	-0.037665	
64178.279639	-0.038710	
64178.281640	-0.044552	
64178.283645	-0.033114	
64178.285645	-0.037971	
64178.287645	-0.041045	
64178.289644	-0.038019	
64178.291644	-0.047598	
64178.295642	-0.048451	
64178.297643	-0.057235	
64178.299644	-0.053639	
64178.303644	-0.052452	
64178.305644	-0.045749	
64178.307643	-0.048175	
64178.309644	-0.054068	
64178.311644	-0.050188	
64178.315643	-0.051813	
64178.317645	-0.054166	
64178.319644	-0.059149	
64178.323643	-0.056210	
64178.325644	-0.054319	
64178.327643	-0.050233	
64178.329645	-0.052546	
64178.331644	-0.054013	
64178.333647	-0.046735	
64178.335646	-0.055956	
64178.339650	-0.058240	
64178.341654	-0.061205	
64178.343651	-0.058384	
64178.345651	-0.051039	
64178.347652	-0.051682	
64178.349651	-0.046013	
64178.351652	-0.046955	
64178.353651	-0.050070	
64178.357650	-0.045597	
64178.359651	-0.056351	
64178.361652	-0.052807	
64178.365650	-0.055762	
64178.367650	-0.041392	
64178.369653	-0.045477	
64178.371652	-0.043937	
64178.373652	-0.041223	
64178.375652	-0.046971	
64178.379650	-0.048025	
64178.381652	-0.052101	
64178.385652	-0.044136	
64178.387651	-0.040004	
64178.389651	-0.033817	
64178.391651	-0.044203	
64178.393650	-0.041098	
64178.395651	-0.037310	
64178.399650	-0.046407	
64178.403649	-0.042106	
64178.405652	-0.034322	
64178.407651	-0.032928	
64178.411649	-0.033369	
64178.413652	-0.034855	
64178.415651	-0.033749	
64178.419650	-0.032133	
64178.423649	-0.035037	
64178.425651	-0.035023	
64178.427652	-0.027366	
64178.429653	-0.026659	
64178.431655	-0.028365	
64178.433655	-0.019972	
64178.435652	-0.021364	
64178.437650	-0.028644	
64178.439651	-0.022354	
64178.443654	-0.031777	
64178.445654	-0.024494	
64178.447654	-0.023468	
64178.449653	-0.015059	
64178.451654	-0.013160	
64178.453653	-0.018250	
64178.455654	-0.010600	
64178.459651	-0.013893	
64178.461654	-0.018590	
64178.463653	-0.019837	
64178.467653	-0.018857	
64178.469653	-0.009985	
64178.471653	-0.006966	
64178.473654	-0.005092	
64178.475654	-0.010529	
64178.479651	-0.005259	
64178.481655	-0.013560	
64178.483653	-0.006446	
64178.487653	-0.007481	
64178.489653	0.005067	
64178.491654	-0.002923	
64178.493653	-0.001383	
64178.495653	0.001994	
64178.497654	-0.000117	
64178.499653	-0.001718	
64178.501653	-0.000008	
64178.505652	-0.003156	
64178.507653	0.001279	
64178.509654	0.004407	
64178.511653	0.008542	
64178.513653	0.006635	
64178.515653	0.006769	
64178.517654	0.013330	
64178.521652	0.007793	
64178.523653	0.007516	
64178.525654	0.000809	
64178.527654	0.006570	
64178.529655	0.011668	
64178.531655	0.012523	
64178.533659	0.017920	
64178.535652	0.015761	
64178.537654	0.016279	
64178.541651	0.021940	
64178.543653	0.009502	
64178.545654	0.013700	
64178.549652	0.009789	
64178.551654	0.025035	
64178.553654	0.022526	
64178.555653	0.026940	
64178.557654	0.023885	
64178.561652	0.022818	
64178.563653	0.016652	
64178.565653	0.018535	
64178.569654	0.023615	
64178.571654	0.030094	
64178.573654	0.032148	
64178.575653	0.024603	
64178.577654	0.031457	
64178.579654	0.030419	
64178.583651	0.023458	
64178.587651	0.027725	
64178.589654	0.037250	
64178.591654	0.031443	
64178.593653	0.034611	
64178.595654	0.038241	
64178.597654	0.034952	
64178.599655	0.042228	
64178.601652	0.037749	
64178.605653	0.033388	
64178.609652	0.036039	
64178.611654	0.045150	
64178.613654	0.042504	
64178.615654	0.042467	
64178.617654	0.048221	
64178.619654	0.044507	
64178.621653	0.041348	
64178.625663	0.042097	
64178.629663	0.039511	
64178.631665	0.044462	
64178.633664	0.051251	
64178.635669	0.046618	
64178.637670	0.046765	
64178.639668	0.051278	
64178.641669	0.036247	
64178.643673	0.039008	
64178.647672	0.040007	
64178.649673	0.043447	
64178.651672	0.048400	
64178.653673	0.044416	
64178.655674	0.050405	
64178.657673	0.045172	
64178.659674	0.042004	
64178.663672	0.043632	
64178.665674	0.034200	
64178.667673	0.039400	
64178.669674	0.034594	
64178.671674	0.038960	
64178.673674	0.041743	
64178.675673	0.033599	
64178.677674	0.034859	
64178.679674	0.033578	
64178.681674	0.028763	
64178.683672	0.026054	
64178.685674	0.022381	
64178.687677	0.019060	
64178.691686	0.020217	
64178.693686	0.014269	
64178.695688	0.016231	
64178.697686	0.009508	
64178.699686	0.012523	
64178.701685	0.010437	
64178.703686	0.003981	
64178.707683	0.000065	
64178.709686	-0.016293	
64178.713686	-0.016361	
64178.715685	-0.019118	
64178.717685	-0.020449	
64178.719686	-0.030570	
64178.721685	-0.033571	
64178.723685	-0.036126	
64178.725685	-0.056189	
64178.729685	-0.062756	
64178.731686	-0.076913	
64178.733687	-0.080400	
64178.735692	-0.086768	
64178.737689	-0.094997	
64178.741688	-0.121401	
64178.743689	-0.129438	
64178.747688	-0.139845	
64178.749690	-0.168455	
64178.751688	-0.182943	
64178.755689	-0.199997	
64178.757689	-0.223706	
64178.759690	-0.243038	
