time (s)	det(V)
65753.092243	-0.102941	
65753.096244	-0.116271	
65753.098246	-0.133806	
65753.100246	-0.141434	
65753.102248	-0.155190	
65753.104249	-0.162430	
65753.106253	-0.174152	
65753.108252	-0.185735	
65753.110251	-0.200975	
65753.112253	-0.222331	
65753.116252	-0.235124	
65753.118251	-0.265408	
65753.120252	-0.273328	
65753.122251	-0.288135	
65753.124251	-0.309557	
65753.126253	-0.325842	
65753.128250	-0.347554	
65753.132250	-0.374532	
65753.134251	-0.420241	
65753.136251	-0.442698	
65753.140251	-0.464584	
65753.142252	-0.517391	
65753.144252	-0.546720	
65753.146251	-0.589349	
65753.148251	-0.618665	
65753.152249	-0.656236	
65753.154250	-0.737610	
65753.156252	-0.782749	
65753.160251	-0.827761	
65753.162252	-0.917912	
65753.164252	-0.966962	
65753.166251	-1.019337	
65753.168251	-1.079442	
65753.172250	-1.132333	
65753.174251	-1.258067	
65753.176252	-1.319062	
65753.180251	-1.393530	
65753.182252	-1.530567	
65753.184252	-1.609598	
65753.186253	-1.639111	
65753.188251	-1.639212	
65753.192249	-1.639362	
65753.194252	-1.639611	
65753.196252	-1.639710	
65753.200251	-1.639816	
65753.202253	-1.640026	
65753.204255	-1.640088	
65753.206256	-1.640229	
65753.208255	-1.640299	
65753.210255	-1.640452	
65753.212254	-1.640463	
65753.214256	-1.640534	
65753.216258	-1.640613	
65753.220265	-1.640650	
65753.222263	-1.640686	
65753.224263	-1.640697	
65753.226264	-1.640717	
65753.228263	-1.640689	
65753.230263	-1.640701	
65753.232263	-1.640693	
65753.236262	-1.640699	
65753.238263	-1.640782	
65753.240264	-1.640805	
65753.244263	-1.640783	
65753.246264	-1.640722	
65753.248264	-1.640723	
65753.250265	-1.640708	
65753.252263	-1.640712	
65753.256262	-1.640692	
65753.258264	-1.640730	
65753.260264	-1.640726	
65753.264263	-1.640731	
65753.266264	-1.640686	
65753.268263	-1.640649	
65753.270264	-1.640691	
65753.272263	-1.640686	
65753.276262	-1.640647	
65753.278264	-1.640706	
65753.280264	-1.640677	
65753.284263	-1.640717	
65753.286263	-1.640666	
65753.288263	-1.640683	
65753.290264	-1.640673	
65753.292264	-1.640678	
65753.296262	-1.640699	
65753.298263	-1.640754	
65753.300263	-1.640722	
65753.304264	-1.640704	
65753.306265	-1.640656	
65753.308262	-1.640661	
65753.310264	-1.640661	
65753.312264	-1.640645	
65753.316262	-1.640666	
65753.318263	-1.640665	
65753.320263	-1.640688	
65753.324263	-1.640667	
65753.326264	-1.640402	
65753.328264	-1.640326	
65753.330264	-1.640091	
65753.332265	-1.639884	
65753.336261	-1.639708	
65753.338263	-1.639423	
65753.340265	-1.639297	
65753.344263	-1.553734	
65753.346264	-1.245286	
65753.348265	-1.109680	
65753.350264	-0.964162	
65753.352267	-0.814213	
65753.354265	-0.667449	
65753.356263	-0.531914	
65753.358265	-0.375574	
65753.362267	-0.204976	
65753.364267	0.065927	
65753.366267	0.234999	
65753.368268	0.401561	
65753.370270	0.563238	
65753.372269	0.705850	
65753.374269	0.851332	
65753.376269	1.006780	
65753.378272	1.138712	
65753.382283	1.263633	
65753.384283	1.543179	
65753.386283	1.618056	
65753.388283	1.620790	
65753.390283	1.620857	
65753.392283	1.620818	
65753.394282	1.620887	
65753.398281	1.620870	
65753.400283	1.620845	
65753.402283	1.620846	
65753.406283	1.620858	
65753.408281	1.620913	
65753.410283	1.620851	
65753.412282	1.620816	
65753.414283	1.620820	
65753.418281	1.620845	
65753.420284	1.620860	
65753.422281	1.620812	
65753.426282	1.620820	
65753.428283	1.620795	
65753.430283	1.620820	
65753.432283	1.620833	
65753.434283	1.620771	
65753.438281	1.620833	
65753.440282	1.620870	
65753.442282	1.620917	
65753.446281	1.620848	
65753.448283	1.620852	
65753.450282	1.620938	
65753.452282	1.620871	
65753.454283	1.620833	
65753.458280	1.620865	
65753.460282	1.620824	
65753.462283	1.620862	
65753.466282	1.620831	
65753.468283	1.620879	
65753.470283	1.620845	
65753.472283	1.620841	
65753.474283	1.620816	
65753.478280	1.620865	
65753.480283	1.620899	
65753.482284	1.620822	
65753.486284	1.620849	
65753.488283	1.620886	
65753.490282	1.620849	
65753.492283	1.620806	
65753.494283	1.620738	
65753.498281	1.620828	
65753.500283	1.620829	
65753.502283	1.620854	
65753.506282	1.620799	
65753.508282	1.620816	
65753.524200	1.621348	
65753.526202	1.621304	
65753.530201	1.621304	
65753.532201	1.621253	
65753.534202	1.621243	
65753.536202	1.621341	
65753.538201	1.621244	
65753.542201	1.621174	
65753.544201	1.599338	
65753.546203	1.531997	
65753.550201	1.472906	
65753.552202	1.370482	
65753.554202	1.341621	
65753.556202	1.300741	
65753.558201	1.260121	
65753.560202	1.222020	
65753.564200	1.162442	
65753.568199	1.078384	
65753.570202	0.990834	
65753.572202	0.956189	
65753.574202	0.914502	
65753.576202	0.877119	
65753.578201	0.834755	
65753.580201	0.793813	
65753.582202	0.750856	
65753.586202	0.704744	
65753.590201	0.580376	
65753.592202	0.547406	
65753.594202	0.516631	
65753.596202	0.480533	
65753.598202	0.459307	
65753.600202	0.433178	
65753.602201	0.403007	
65753.606200	0.387541	
65753.610201	0.342439	
65753.612203	0.309865	
65753.614200	0.297781	
65753.616201	0.284334	
65753.618202	0.267912	
65753.620202	0.260624	
65753.622202	0.244977	
65753.626201	0.226029	
65753.628202	0.205798	
65753.630202	0.188348	
65753.632206	0.191177	
65753.634204	0.179751	
65753.636204	0.171740	
65753.638203	0.168181	
65753.640204	0.152312	
65753.644202	0.143104	
65753.646202	0.113545	
65753.648203	0.108454	
65753.652207	0.097447	
65753.654203	0.089570	
65753.656203	0.078484	
65753.658204	0.067412	
65753.660204	0.065373	
65753.662204	0.048408	
65753.666201	0.037704	
65753.670202	0.028667	
65753.672204	0.024168	
65753.674203	0.024042	
65753.676203	0.026474	
65753.678204	0.014911	
65753.680203	0.005898	
65753.682204	0.011717	
65753.686202	0.004161	
65753.690203	0.004162	
65753.692204	0.002397	
65753.694203	0.002283	
65753.696204	-0.006449	
65753.698204	-0.002116	
65753.700204	-0.004281	
65753.702204	-0.008978	
65753.704204	-0.005471	
65753.708203	-0.008292	
65753.710203	-0.010669	
65753.712204	-0.019908	
65753.714204	-0.011431	
65753.716203	-0.011366	
65753.718203	-0.016476	
65753.720204	-0.013870	
65753.722203	-0.009681	
65753.726202	-0.019890	
65753.728204	-0.028345	
65753.730204	-0.031464	
65753.734202	-0.027591	
65753.736204	-0.028806	
65753.738203	-0.022298	
65753.740208	-0.026966	
65753.742213	-0.023550	
65753.746209	-0.024175	
65753.748211	-0.036117	
65753.750212	-0.034512	
65753.754211	-0.042324	
65753.756212	-0.027404	
65753.758212	-0.029765	
65753.760212	-0.030400	
65753.762211	-0.034615	
65753.766210	-0.034974	
65753.768210	-0.043814	
65753.770211	-0.040676	
65753.774210	-0.035716	
65753.776211	-0.025550	
65753.778211	-0.027561	
65753.780210	-0.035276	
65753.782210	-0.029301	
65753.786208	-0.033274	
65753.788211	-0.033119	
65753.790210	-0.035152	
65753.794210	-0.033335	
65753.796211	-0.031001	
65753.798210	-0.025963	
65753.800211	-0.027823	
65753.802211	-0.029914	
65753.806208	-0.024311	
65753.808210	-0.033201	
65753.810210	-0.027689	
65753.814210	-0.033335	
65753.816211	-0.021299	
65753.818210	-0.025505	
65753.820211	-0.023490	
65753.822211	-0.016613	
65753.824210	-0.021203	
65753.828209	-0.022234	
65753.832209	-0.027616	
65753.834214	-0.023301	
65753.836215	-0.021924	
65753.838213	-0.011954	
65753.840212	-0.014147	
65753.842213	-0.013484	
65753.844212	-0.009852	
65753.848210	-0.021922	
65753.850213	-0.018937	
65753.854212	-0.020875	
65753.856212	-0.008722	
65753.858212	-0.011711	
65753.860211	-0.005935	
65753.862212	-0.010391	
65753.864212	-0.010141	
65753.868212	-0.012856	
65753.872211	-0.014088	
65753.874213	-0.010573	
65753.876213	-0.003083	
65753.878212	-0.004608	
65753.880213	-0.009940	
65753.882213	-0.004531	
65753.884213	-0.006457	
65753.886212	-0.012863	
65753.890213	-0.007187	
65753.892213	-0.008763	
65753.894212	-0.008212	
65753.896213	-0.008633	
65753.898213	-0.003735	
65753.900212	-0.002730	
65753.902212	-0.007976	
65753.904214	0.002171	
65753.908211	0.000544	
65753.910212	-0.002082	
65753.912212	-0.006146	
65753.916212	-0.007436	
65753.918214	-0.001956	
65753.920214	0.003226	
65753.922214	0.005556	
65753.924214	0.003190	
65753.926212	0.006730	
65753.928212	0.000578	
65753.932212	-0.007922	
65753.934214	-0.002718	
65753.936216	-0.004492	
65753.938218	0.007898	
65753.940214	0.005958	
65753.942214	0.005510	
65753.944215	0.009137	
65753.946214	0.002150	
65753.950212	0.004588	
65753.952216	-0.003095	
65753.954215	0.004047	
65753.958214	0.004104	
65753.960215	0.016722	
65753.962214	0.010069	
65753.964214	0.007333	
65753.966216	0.012955	
65753.970213	0.009661	
65753.972215	0.009566	
65753.974215	0.005355	
65753.978214	0.010213	
65753.980215	0.012319	
65753.982215	0.017020	
65753.984214	0.011282	
65753.986214	0.013515	
65753.990214	0.019986	
65753.992214	0.009639	
65753.994216	0.013325	
65753.998214	0.004715	
65754.000215	0.013801	
65754.002214	0.008626	
65754.004215	0.014987	
65754.006214	0.014525	
65754.008214	0.010789	
65754.010215	0.008086	
65754.014218	0.000040	
65754.018218	0.000762	
65754.020219	0.004219	
65754.022220	0.004901	
65754.024220	-0.000259	
65754.026221	0.001575	
65754.028221	0.000594	
65754.030221	-0.014752	
65754.034221	-0.012298	
65754.038224	-0.019194	
65754.040227	-0.013712	
65754.042226	-0.014862	
65754.044227	-0.015840	
65754.046226	-0.024545	
65754.048228	-0.023993	
65754.050227	-0.032356	
65754.054226	-0.041566	
65754.058226	-0.038398	
65754.060226	-0.038399	
65754.062227	-0.048257	
65754.064226	-0.053022	
65754.066226	-0.053670	
65754.068226	-0.061358	
65754.070227	-0.069194	
65754.074228	-0.068997	
65754.078228	-0.079576	
65754.080229	-0.088863	
65754.082229	-0.089279	
65754.084229	-0.098405	
65754.086227	-0.103365	
65754.088229	-0.101176	
65754.092226	-0.116061	
65754.096226	-0.129571	
65754.098228	-0.144309	
65754.100228	-0.149324	
65754.102229	-0.163075	
65754.104228	-0.165035	
65754.106228	-0.171399	
65754.108230	-0.180199	
65754.110228	-0.191100	
65754.114229	-0.212320	
65754.118228	-0.234473	
65754.120229	-0.250769	
65754.122229	-0.260155	
65754.124228	-0.279341	
65754.126229	-0.293070	
65754.128229	-0.313403	
65754.130228	-0.344482	
65754.134227	-0.357202	
65754.138228	-0.399376	
65754.140229	-0.431655	
65754.144226	-0.478758	
65754.146228	-0.513932	
65754.148229	-0.539343	
65754.152226	-0.576963	
65754.156226	-0.644099	
65754.158230	-0.711053	
65754.160229	-0.739827	
65754.162230	-0.784378	
65754.164230	-0.827796	
65754.166228	-0.867609	
65754.168229	-0.916787	
65754.170228	-0.965298	
65754.174229	-1.059132	
65754.178229	-1.106585	
65754.180228	-1.216440	
65754.182229	-1.259346	
65754.184229	-1.318009	
65754.186228	-1.382262	
65754.188230	-1.438371	
65754.192226	-1.511539	
65754.194229	-1.630889	
65754.196228	-1.638784	
65754.198229	-1.638854	
65754.200230	-1.638923	
65754.202229	-1.639081	
65754.204229	-1.639105	
65754.206228	-1.639235	
65754.208230	-1.639350	
65754.210228	-1.639465	
65754.212229	-1.639577	
65754.214228	-1.639687	
65754.218239	-1.639771	
65754.220241	-1.639953	
65754.222241	-1.639982	
65754.224240	-1.640148	
65754.226240	-1.640128	
65754.228240	-1.640206	
65754.230241	-1.640284	
65754.234238	-1.640350	
65754.236240	-1.640313	
65754.238247	-1.640363	
65754.240247	-1.640319	
65754.242246	-1.640284	
65754.244247	-1.640303	
65754.246246	-1.640351	
65754.248247	-1.640342	
65754.250247	-1.640280	
65754.254245	-1.640377	
65754.256247	-1.640355	
65754.258245	-1.640364	
65754.262246	-1.640313	
65754.264246	-1.640324	
65754.266247	-1.640347	
65754.268248	-1.640353	
65754.270247	-1.640363	
65754.272248	-1.640339	
65754.274246	-1.640334	
65754.276246	-1.640382	
65754.280251	-1.640351	
65754.282251	-1.640359	
65754.284250	-1.640301	
65754.286251	-1.640356	
65754.288251	-1.640392	
65754.290252	-1.640377	
65754.292251	-1.640357	
65754.296248	-1.640338	
65754.298252	-1.640330	
65754.300250	-1.640360	
65754.304250	-1.640351	
65754.306251	-1.640387	
65754.308250	-1.640374	
65754.310252	-1.640364	
65754.312251	-1.640370	
65754.316249	-1.640355	
65754.318250	-1.640339	
65754.320250	-1.640344	
65754.324250	-1.640347	
65754.326252	-1.640338	
65754.328252	-1.640392	
65754.330251	-1.640420	
65754.332250	-1.640371	
65754.336248	-1.640401	
65754.338250	-1.640341	
65754.340251	-1.640364	
65754.344250	-1.640326	
65754.346251	-1.640159	
65754.348251	-1.640085	
65754.350252	-1.639882	
65754.352250	-1.639669	
65754.356249	-1.639457	
65754.358251	-1.639065	
65754.360251	-1.638864	
65754.364250	-1.619372	
65754.366251	-1.308700	
65754.368251	-1.167151	
65754.370250	-1.015647	
65754.372251	-0.858796	
65754.374251	-0.712272	
65754.376251	-0.561955	
65754.378250	-0.409351	
65754.380251	-0.263517	
65754.384250	-0.105631	
65754.386252	0.209958	
65754.388251	0.373583	
65754.390251	0.514644	
65754.392252	0.662798	
65754.394252	0.818784	
65754.396252	0.960440	
65754.400250	1.100838	
65754.404250	1.540794	
65754.406252	1.620566	
65754.408251	1.621168	
65754.410252	1.621143	
65754.412251	1.621218	
65754.414251	1.621204	
65754.418251	1.621212	
65754.422250	1.621249	
65754.424252	1.621242	
65754.426253	1.621249	
65754.428253	1.621238	
65754.430251	1.621201	
65754.432255	1.621224	
65754.434260	1.621220	
65754.436258	1.621263	
65754.440259	1.621252	
65754.444258	1.621266	
65754.446261	1.621228	
65754.448258	1.621236	
65754.450259	1.621285	
65754.452260	1.621234	
65754.454260	1.621228	
65754.456260	1.621239	
65754.460259	1.621218	
65754.464260	1.621239	
65754.466260	1.621275	
65754.468260	1.621214	
65754.470260	1.621237	
65754.472259	1.621219	
65754.474259	1.621219	
65754.478258	1.621189	
65754.482258	1.621293	
65754.484259	1.621249	
65754.486260	1.621194	
65754.488260	1.621209	
65754.490259	1.621195	
65754.492260	1.621230	
65754.494260	1.621206	
65754.496260	1.621247	
65754.500268	1.621237	
65754.504270	1.621239	
65754.506270	1.621204	
65754.508269	1.621208	
65754.510270	1.621245	
65754.512268	1.621154	
65754.514269	1.621215	
65754.516270	1.621238	
65754.520270	1.621233	
65754.522268	1.621239	
65754.524270	1.621264	
65754.540163	1.621113	
65754.542165	1.621060	
65754.546164	1.621071	
65754.548165	1.621105	
65754.550165	1.621067	
65754.552165	1.621097	
65754.554165	1.621074	
65754.558163	1.621086	
65754.560164	1.621019	
65754.562165	1.620962	
65754.566164	1.620957	
65754.568165	1.608788	
65754.570165	1.548630	
65754.572168	1.485357	
65754.574167	1.417400	
65754.578165	1.379770	
65754.580167	1.273798	
65754.582167	1.232448	
65754.586166	1.173394	
65754.588167	1.070523	
65754.590167	1.012834	
65754.592167	0.963248	
65754.594167	0.919119	
65754.598165	0.863681	
65754.600169	0.768346	
65754.602168	0.720616	
65754.606170	0.675674	
65754.608171	0.592841	
65754.610173	0.556523	
65754.612171	0.515704	
65754.614171	0.477640	
65754.618170	0.448925	
65754.620171	0.387412	
65754.622170	0.367493	
65754.626170	0.336405	
65754.628171	0.300442	
65754.630172	0.273422	
65754.632171	0.256850	
65754.634172	0.244697	
65754.636171	0.225914	
65754.638171	0.214746	
65754.642170	0.197761	
65754.646171	0.179937	
65754.648172	0.162254	
65754.650172	0.158880	
65754.652171	0.145228	
65754.654171	0.143431	
65754.656171	0.134646	
65754.660169	0.117841	
65754.664169	0.098315	
65754.666171	0.084716	
65754.668171	0.075678	
65754.670171	0.067657	
65754.672171	0.065491	
65754.674171	0.051481	
65754.676171	0.049776	
65754.678171	0.035661	
65754.682171	0.020514	
65754.686175	0.008899	
65754.688177	0.008956	
65754.690179	-0.000502	
65754.692178	-0.005243	
65754.694177	-0.003990	
65754.696177	-0.017708	
65754.698177	-0.023965	
65754.702185	-0.024868	
65754.706185	-0.028803	
65754.708185	-0.028520	
65754.710185	-0.025250	
65754.712185	-0.032333	
65754.714186	-0.034120	
65754.716185	-0.031369	
65754.720183	-0.042333	
65754.724183	-0.039883	
65754.726185	-0.035316	
65754.728185	-0.033536	
65754.730187	-0.041020	
65754.732185	-0.038017	
65754.734185	-0.039708	
65754.736186	-0.041678	
65754.738185	-0.040443	
65754.742192	-0.046799	
65754.744194	-0.042977	
65754.746193	-0.052412	
65754.748193	-0.045833	
65754.750200	-0.042959	
65754.752200	-0.047778	
65754.754199	-0.043582	
65754.756199	-0.041241	
65754.760197	-0.046235	
65754.762200	-0.052566	
65754.764199	-0.057299	
65754.768198	-0.051977	
65754.770198	-0.049788	
65754.772199	-0.044385	
65754.774204	-0.049360	
65754.776207	-0.044910	
65754.780205	-0.044608	
65754.782206	-0.051929	
65754.784207	-0.052509	
65754.788205	-0.053973	
65754.790207	-0.043460	
65754.792207	-0.040979	
65754.794207	-0.039652	
65754.796206	-0.044312	
65754.800204	-0.042819	
65754.802207	-0.051823	
65754.804206	-0.044311	
65754.808207	-0.043640	
65754.810208	-0.034409	
65754.812206	-0.035093	
65754.814206	-0.038872	
65754.816207	-0.033290	
65754.818206	-0.035385	
65754.822205	-0.042169	
65754.824206	-0.040538	
65754.828206	-0.036977	
65754.830207	-0.033836	
65754.832207	-0.029003	
65754.834207	-0.032160	
65754.836206	-0.033313	
65754.838206	-0.026417	
65754.840207	-0.032200	
65754.844206	-0.036662	
65754.846207	-0.038527	
65754.848207	-0.034731	
65754.850208	-0.027498	
65754.852206	-0.030660	
65754.854206	-0.022635	
65754.856206	-0.023813	
65754.858207	-0.024780	
65754.862204	-0.019238	
65754.864206	-0.032492	
65754.866207	-0.026163	
65754.870209	-0.027826	
65754.872209	-0.013138	
65754.874209	-0.016921	
65754.876208	-0.015453	
65754.878209	-0.012613	
65754.882207	-0.017568	
65754.884209	-0.021299	
65754.886208	-0.021776	
65754.890208	-0.014239	
65754.892209	-0.008638	
65754.894209	-0.003630	
65754.896208	-0.014772	
65754.898208	-0.009405	
65754.902206	-0.008070	
65754.904208	-0.012684	
65754.906207	-0.010984	
65754.910208	-0.014094	
65754.912208	-0.004687	
65754.914209	-0.007143	
65754.916208	-0.003596	
65754.918209	-0.003742	
65754.922206	-0.003220	
65754.924208	-0.006686	
65754.926209	-0.003866	
65754.930207	-0.002642	
65754.932209	0.004521	
65754.934207	0.002010	
65754.936209	-0.001672	
65754.938210	0.008164	
65754.942206	0.007166	
65754.944209	0.005684	
65754.946209	-0.003282	
65754.950207	-0.000757	
65754.952209	0.007427	
65754.954209	0.011517	
65754.956209	0.013061	
65754.958207	0.012410	
65754.962207	0.017291	
65754.964210	0.002925	
65754.966208	0.010053	
65754.970212	0.006461	
65754.972209	0.020204	
65754.974208	0.017446	
65754.976208	0.019632	
65754.978208	0.023753	
65754.982207	0.015644	
65754.984209	0.014642	
65754.986209	0.014279	
65754.990208	0.021417	
65754.992208	0.027870	
65754.994209	0.032947	
65754.996209	0.023909	
65754.998209	0.027427	
65755.002206	0.029530	
65755.004208	0.023685	
65755.006208	0.026655	
65755.010207	0.023159	
65755.012209	0.033440	
65755.014208	0.030855	
65755.016209	0.033085	
65755.018209	0.034511	
65755.022206	0.034454	
65755.024209	0.030664	
65755.026209	0.032982	
65755.030208	0.034281	
65755.032208	0.039569	
65755.034209	0.040069	
65755.036208	0.036530	
65755.038209	0.046825	
65755.040209	0.042364	
65755.042209	0.038223	
65755.044209	0.042749	
65755.048217	0.037524	
65755.050216	0.044228	
65755.052217	0.042444	
65755.054217	0.049163	
65755.056215	0.050589	
65755.058217	0.047812	
65755.062215	0.049531	
65755.064219	0.039491	
65755.068216	0.045618	
65755.070216	0.043608	
65755.072216	0.054423	
65755.074217	0.052266	
65755.076224	0.054776	
65755.078225	0.055543	
65755.080224	0.049996	
65755.084223	0.052678	
65755.086224	0.045372	
65755.088224	0.053406	
65755.090224	0.050925	
65755.092224	0.056260	
65755.094226	0.064288	
65755.096225	0.054450	
65755.098223	0.055009	
65755.100225	0.061145	
65755.104222	0.054393	
65755.106225	0.055185	
65755.108224	0.051662	
65755.112224	0.058520	
65755.114225	0.057346	
65755.116226	0.060535	
65755.118224	0.056831	
65755.120225	0.056335	
65755.124223	0.060940	
65755.126226	0.052536	
65755.128223	0.052895	
65755.132224	0.045191	
65755.134225	0.052097	
65755.136225	0.050497	
65755.138225	0.053756	
65755.140224	0.051275	
65755.142225	0.048122	
65755.146223	0.045597	
65755.148225	0.034509	
65755.150225	0.035561	
65755.152223	0.028685	
65755.154225	0.037044	
65755.156225	0.036260	
65755.158226	0.030888	
65755.160224	0.031878	
65755.162225	0.025606	
65755.166222	0.017894	
65755.168226	0.005437	
65755.170224	0.000504	
65755.174227	0.000404	
65755.176224	-0.004133	
65755.178225	-0.008332	
65755.180225	-0.024317	
65755.182224	-0.025036	
65755.184225	-0.032154	
